raman_shift	intensity
-21.10368	194
-19.981625	195
-18.859688	197
-17.737869	197
-16.616169	196
-15.49459	196
-14.373129	197
-13.253152	195
-12.131928	196
-11.010823	197
-9.8912029	197
-8.7689705	198
-7.6495872	196
-6.5289574	195
-5.409811	196
-4.288054	196
-3.1691449	198
-2.0489898	197
-0.93031764	199
0.19096418	198
1.3093994	199
2.42908	197
3.5472784	197
4.6667218	196
5.7846837	199
6.9038901	198
8.021615	196
9.1405849	196
10.259436	195
11.378169	195
12.49542	197
13.613916	197
14.730932	199
15.849192	197
16.965971	196
18.082632	198
19.199175	196
20.316961	196
21.433268	196
22.550817	197
23.666889	197
24.784203	197
25.900036	197
27.015753	197
28.131351	197
29.248194	196
30.363556	196
31.480162	196
32.593929	195
33.710297	195
34.825188	198
35.941322	195
37.054619	199
38.170517	196
39.284939	196
40.399239	197
41.513424	197
42.627491	196
43.741444	196
44.856632	197
45.96899	196
47.083942	197
48.196064	194
49.310783	197
50.42403	195
51.537155	198
52.650166	195
53.763058	196
54.875832	196
55.988487	197
57.101028	198
58.212093	196
59.325756	197
60.436584	195
61.550011	196
62.66061	198
63.772446	198
64.884163	196
65.995766	197
67.107246	196
68.217255	196
69.329865	197
70.439636	195
71.550652	196
72.660194	196
73.770981	194
74.881645	196
75.992188	198
77.102615	197
78.211578	196
79.32177	197
80.430496	196
81.540459	198
82.648949	197
83.758682	197
84.868294	196
85.977783	196
87.087158	195
88.195068	197
89.304214	195
90.410538	197
91.519447	197
92.626884	196
93.735565	195
94.844124	196
95.95121	195
97.05954	196
98.166397	197
99.27449	198
100.37977	196
101.48763	196
102.59537	198
103.70164	195
104.80916	197
105.91385	197
107.02113	196
108.12694	195
109.23263	197
110.33956	195
111.44502	196
112.55037	197
113.65559	197
114.76206	197
115.86706	198
116.97194	195
118.07805	195
119.18135	198
120.28723	197
121.39165	197
122.49595	196
123.60014	197
124.7042	198
125.80815	195
126.91334	195
128.01572	197
129.11931	197
130.22281	199
131.32617	199
132.43079	197
133.53258	199
134.6356	200
135.73851	202
136.84131	197
137.94398	203
139.04654	203
140.14899	205
141.24997	201
142.35219	205
143.45563	205
144.55627	204
145.65814	208
146.75989	205
147.86018	204
148.96304	206
150.06311	207
151.1644	205
152.26558	207
153.36528	202
154.46623	206
155.56706	204
156.66643	205
157.76703	207
158.86617	202
159.96652	205
161.06677	204
162.16557	205
163.26559	205
164.36549	204
165.46394	205
166.56361	206
167.66318	208
168.76128	205
169.85927	208
170.95848	207
172.05624	208
173.15388	208
174.25275	208
175.35016	207
176.45013	209
177.54597	211
178.64305	206
179.74268	207
180.83818	204
181.93491	201
183.03419	204
184.12935	205
185.22572	204
186.32466	202
187.41948	204
188.5155	205
189.61276	203
190.70857	208
191.80426	207
192.89984	205
193.99664	204
195.09198	204
196.18721	203
197.28099	205
198.37868	206
199.47356	207
200.567	204
201.66165	203
202.75754	204
203.85197	203
204.94629	207
206.04048	207
207.13324	205
208.2272	205
209.32375	205
210.41615	205
211.50978	204
212.60329	202
213.69536	205
214.78864	204
215.88182	204
216.97354	206
218.06648	205
219.16199	206
220.25337	203
221.34596	206
222.43846	204
223.53082	205
224.62175	203
225.7139	203
226.80592	203
227.89651	204
228.98831	207
230.08	204
231.17024	204
232.26172	204
233.35306	205
234.44429	205
235.53407	207
236.62509	207
237.71597	205
238.80542	206
239.89609	206
240.98665	206
242.07442	206
243.16341	205
244.25362	203
245.3437	205
246.43236	205
247.52223	205
248.61198	207
249.70163	205
250.78983	204
251.87657	207
252.96588	206
254.05374	207
255.14281	209
256.23178	206
257.32062	205
258.40536	206
259.49399	208
260.58249	206
261.67087	208
262.75516	206
263.84335	209
264.9314	210
266.01801	208
267.10318	209
268.19089	208
269.27847	207
270.36465	209
271.44937	209
272.53662	203
273.62378	206
274.70682	206
275.79373	205
276.88055	205
277.9646	208
279.04984	207
280.13632	210
281.22	207
282.30624	207
283.39105	207
284.47443	209
285.56033	208
286.64346	208
287.72781	211
288.81339	210
289.89618	207
290.98151	213
292.06409	213
293.14789	213
294.23022	216
295.31512	215
296.39856	214
297.48059	212
298.56512	210
299.64691	213
300.73123	209
301.81149	212
302.89557	212
303.97693	210
305.05814	210
306.14059	210
307.22159	209
308.30511	210
309.38589	212
310.46921	209
311.54843	210
312.63153	209
313.71185	212
314.79205	211
315.8735	211
316.95349	213
318.03336	213
319.11578	210
320.19543	209
321.27631	214
322.35571	208
323.43503	212
324.51691	214
325.59598	214
326.67365	215
327.75516	214
328.83392	218
329.91257	220
330.99112	214
332.07086	223
333.14917	218
334.22736	218
335.30545	220
336.38608	222
337.46262	220
338.54037	220
339.61801	222
340.69818	225
341.7756	225
342.85159	231
343.92877	233
345.00586	237
346.08282	241
347.16232	248
348.23907	247
349.31439	254
350.39093	260
351.46735	260
352.54364	266
353.61981	280
354.69724	312
355.77319	353
356.84906	390
357.9248	348
359.00043	280
360.07596	240
361.15005	232
362.22534	226
363.30054	223
364.37561	218
365.45059	221
366.52542	218
367.59885	214
368.67349	215
369.74802	217
370.82242	213
371.89673	215
372.97092	213
374.04367	215
375.11765	210
376.1915	209
377.26523	208
378.33887	205
379.41238	205
380.48581	206
381.5578	207
382.63098	205
383.70142	207
384.77438	208
385.84726	207
386.91998	209
387.99265	206
389.06384	207
390.13626	207
391.20593	210
392.27811	209
393.35019	209
394.42218	209
395.49402	213
396.56445	209
397.63348	212
398.70502	209
399.77643	211
400.84772	212
401.91629	212
402.9874	214
404.05835	211
405.1279	211
406.19604	216
407.26669	217
408.33722	217
409.40765	220
410.47534	223
411.54553	231
412.61563	241
413.68167	260
414.75153	291
415.82129	345
416.88834	389
417.95786	433
419.02731	409
420.09399	323
421.16321	277
422.22968	245
423.29736	231
424.36624	222
425.43237	218
426.50104	211
427.56699	209
428.63541	208
429.70111	210
430.76935	207
431.83743	207
432.90283	208
433.96939	210
435.03458	208
436.10223	209
437.16718	205
438.23462	206
439.29935	205
440.36658	205
441.43106	205
442.49545	203
443.56238	207
444.62653	207
445.69193	206
446.75586	206
447.82233	205
448.88605	206
449.94968	202
451.01581	204
452.07922	203
453.14514	203
454.20831	207
455.27139	205
456.33698	202
457.39984	204
458.46259	205
459.52655	203
460.58908	204
461.65149	204
462.71643	205
463.77863	204
464.84073	205
465.90533	206
466.96719	202
468.02896	204
469.09064	205
470.15479	208
471.21622	202
472.27756	203
473.33878	203
474.4025	204
475.4635	204
476.5231	207
477.58389	205
478.64456	207
479.70514	208
480.76819	209
481.82855	205
482.88879	207
483.94894	207
485.00894	206
486.06888	207
487.13129	208
488.19098	209
489.25058	207
490.31006	210
491.36942	206
492.42868	207
493.48785	207
494.54688	210
495.60583	208
496.66464	206
497.72339	207
498.78198	206
499.84048	206
500.8989	209
501.95718	212
503.01535	213
504.07343	211
505.13138	212
506.18924	213
507.24698	211
508.30331	213
509.36084	217
510.41824	217
511.47556	219
512.53278	224
513.58984	233
514.64685	238
515.70374	250
516.7605	281
517.81714	335
518.87372	452
519.92755	591
520.98389	635
522.0401	520
523.09625	388
524.15222	302
525.20813	257
526.26135	242
527.31702	233
528.37262	230
529.4281	220
530.48346	217
531.5387	218
532.59125	216
533.6463	211
534.70123	215
535.75604	212
536.80817	210
537.86279	209
538.9173	211
539.97168	211
541.02338	210
542.07758	207
543.13159	206
544.18298	209
545.23682	209
546.29059	208
547.34296	207
548.39648	205
549.44989	208
550.50061	207
551.55383	207
552.60693	204
553.65729	203
554.71021	204
555.76038	203
556.81305	203
557.8656	203
558.91547	203
559.96783	205
561.01746	203
562.06958	204
563.11902	203
564.17096	204
565.22021	204
566.27191	204
567.32349	202
568.37238	204
569.42377	206
570.47247	204
571.52106	205
572.57208	204
573.62048	205
574.67133	205
575.72076	204
576.77136	207
577.81934	203
578.86975	205
579.91748	206
580.96509	205
582.01514	206
583.06256	205
584.11243	205
585.15961	204
586.20673	201
587.25629	204
588.30316	202
589.34991	203
590.39917	203
591.44568	202
592.49341	204
593.54236	203
594.58856	204
595.6347	205
596.68329	202
597.72919	203
598.77502	203
599.82074	203
600.8689	204
601.91437	201
602.95972	202
604.005	203
605.05273	202
606.09784	203
607.14404	200
608.1889	202
609.23364	201
610.28082	203
611.32538	205
612.36981	200
613.41412	205
614.45831	204
615.50244	203
616.54901	202
617.5929	204
618.63794	201
619.68164	205
620.72522	205
621.76868	203
622.81201	202
623.85529	204
624.89844	203
625.94147	205
626.98438	205
628.02979	203
629.07379	205
630.11639	203
631.15894	204
632.20135	204
633.24365	206
634.28583	205
635.32788	206
636.36987	205
637.41174	202
638.45483	204
639.4939	204
640.53546	203
641.5769	204
642.61829	201
643.65948	203
644.70062	204
645.74292	204
646.78387	202
647.82471	207
648.86542	204
649.90601	201
650.94391	203
651.98431	202
653.0246	205
654.0661	204
655.10614	205
656.14612	203
657.18341	207
658.22321	205
659.26288	204
660.30243	203
661.34186	203
662.37988	202
663.41913	203
664.45825	206
665.49731	205
666.53363	205
667.57245	207
668.61243	203
669.65106	206
670.68695	205
671.72534	204
672.76367	205
673.79926	204
674.83862	203
675.87659	204
676.91193	204
677.94965	206
678.9873	206
680.02234	205
681.05975	206
682.09839	204
683.13306	204
684.17017	204
685.20465	204
686.24158	204
687.27838	207
688.31378	204
689.3504	206
690.38434	205
691.42078	209
692.45447	209
693.49194	207
694.52545	210
695.56146	207
696.59479	208
697.63049	207
698.66364	210
699.70044	210
700.73334	207
701.76868	211
702.80139	211
703.83655	207
704.8703	210
705.90521	208
706.9375	210
707.96967	207
709.00427	207
710.03748	213
711.0719	210
712.10364	208
713.13531	209
714.16937	207
715.20209	206
716.23596	206
717.26721	205
718.29834	205
719.33191	203
720.36407	205
721.3949	203
722.4256	204
723.45874	202
724.48926	207
725.52094	204
726.55371	204
727.58392	206
728.61401	203
729.64398	204
730.67767	203
731.70746	206
732.73712	205
733.76666	203
734.79742	205
735.82928	203
736.85858	201
737.8877	201
738.91675	205
739.94696	206
740.97577	204
742.00708	204
743.03571	203
744.06549	204
745.09393	201
746.12219	202
747.15045	204
748.17981	203
749.20782	203
750.23828	203
751.26605	202
752.29376	203
753.32263	204
754.3501	202
755.3775	204
756.40479	200
757.43323	203
758.46027	203
759.48724	205
760.5141	202
761.54211	207
762.56879	203
763.59534	202
764.62183	205
765.64941	204
766.67566	204
767.70178	204
768.72784	204
769.7525	204
770.77832	204
771.80408	205
772.83099	201
773.85651	202
774.8819	203
775.90723	203
776.93372	202
777.9588	203
778.98126	199
780.00616	202
781.03223	203
782.05695	200
783.08154	201
784.1048	201
785.12915	202
786.15344	203
787.17761	203
788.20294	205
789.22443	203
790.24829	203
791.27332	204
792.297	203
793.31799	206
794.34149	204
795.36609	204
796.38934	204
797.40997	203
798.43427	203
799.45721	202
800.47754	203
801.50031	204
802.52417	204
803.54419	203
804.56665	204
805.59021	203
806.60992	206
807.63202	205
808.65277	205
809.67474	204
810.69653	203
811.71698	206
812.73859	205
813.75757	204
814.77899	204
815.79901	204
816.82025	203
817.83881	203
818.86108	204
819.88196	203
820.90021	203
821.92218	205
822.94025	207
823.96069	204
824.97986	204
825.99762	207
827.01776	205
828.03656	202
829.05658	205
830.07391	206
831.09369	205
832.11206	204
833.12909	202
834.14984	203
835.16669	203
836.18591	204
837.2038	202
838.22034	203
839.23932	202
840.2569	202
841.27313	204
842.29175	205
843.30902	202
844.32495	204
845.34332	205
846.36029	202
847.37592	202
848.39392	205
849.41058	205
850.4259	204
851.4411	204
852.46002	205
853.47498	203
854.48993	201
855.50598	204
856.52319	201
857.53778	202
858.55353	203
859.56793	205
860.5835	204
861.60022	205
862.61426	204
863.62952	204
864.64343	203
865.65723	207
866.67212	203
867.68573	205
868.70172	201
869.71637	203
870.72968	201
871.74408	204
872.75714	205
873.77014	202
874.78424	204
875.79706	203
876.81097	206
877.82355	202
878.836	204
879.84961	203
880.86188	202
881.87531	203
882.88739	202
883.89935	206
884.91248	203
885.92426	204
886.93591	203
887.94873	204
888.96014	204
889.97278	202
890.98401	202
891.99518	204
893.00751	203
894.01843	201
895.03058	202
896.04132	205
897.04944	205
898.06128	203
899.07172	204
900.08331	201
901.09357	205
902.1037	204
903.11499	202
904.12244	203
905.13354	200
906.14331	205
907.15417	204
908.1637	200
909.17065	202
910.18127	202
911.19049	202
912.20087	203
913.2074	202
914.21637	202
915.22644	201
916.23517	203
917.24255	203
918.2511	206
919.2608	201
920.2666	203
921.27484	204
922.28424	204
923.28979	205
924.29895	205
925.30682	203
926.31329	202
927.32092	203
928.32843	201
929.33459	203
930.34198	205
931.34796	204
932.35504	207
933.36334	209
934.3678	210
935.37585	205
936.38007	207
937.38794	206
938.39203	209
939.39844	209
940.4035	209
941.40973	208
942.41461	207
943.42065	208
944.42535	209
945.43115	211
946.43561	211
947.44128	211
948.44556	210
949.45099	209
950.45508	209
951.46027	207
952.46289	210
953.46667	209
954.47162	212
955.47522	209
956.47992	209
957.48334	209
958.48535	212
959.49103	212
960.49286	212
961.49585	212
962.5	211
963.50275	210
964.50421	208
965.50928	213
966.5105	210
967.51294	208
968.51642	209
969.51862	210
970.51947	212
971.52148	209
972.5246	211
973.52637	211
974.52679	210
975.52844	212
976.53113	211
977.53131	209
978.53259	209
979.53375	213
980.53363	214
981.53589	212
982.53674	211
983.53632	210
984.53699	214
985.5376	210
986.53687	207
987.53723	209
988.53882	210
989.53778	208
990.53784	209
991.53784	210
992.5365	207
993.53632	208
994.53479	205
995.53436	206
996.53265	207
997.53204	205
998.53015	207
999.52936	204
1000.5272	207
1001.5262	207
1002.5239	204
1003.5227	205
1004.5201	205
1005.5188	203
1006.5161	206
1007.5145	206
1008.5115	203
1009.5098	203
1010.5079	205
1011.5046	205
1012.5026	202
1013.4991	207
1014.4969	205
1015.4933	205
1016.4883	205
1017.4845	203
1018.4819	205
1019.4778	203
1020.475	204
1021.4708	205
1022.4652	205
1023.4621	204
1024.4575	204
1025.4542	205
1026.4495	205
1027.4435	205
1028.4386	205
1029.4348	205
1030.4297	203
1031.4258	205
1032.4193	203
1033.4138	202
1034.4097	203
1035.4016	204
1036.3971	203
1037.3914	202
1038.3867	205
1039.3795	204
1040.3734	203
1041.3685	204
1042.3597	205
1043.3546	203
1044.3481	205
1045.3403	204
1046.335	203
1047.3257	202
1048.3201	204
1049.3131	204
1050.3048	202
1051.2976	203
1052.2892	203
1053.2831	204
1054.2731	203
1055.2668	205
1056.2592	204
1057.2502	206
1058.2435	205
